HawtC2_ProjectName: 5MW_PowerProduction_Spar2 更多消息和教程请访问：http://www.hawtc.cn/
Powered By OpenWECD.HawtC2.MBD @CopyRight 赵子祯
Time	TTDspFA   	TTDspSS   	TTDspAx   	
(s)	(m)       	(m)       	(m)       	
0.000000	0.000000	-0.000000	0.000000	
0.050000	-0.000947	-0.000039	-0.000000	
0.100000	-0.002383	-0.000213	0.000000	
0.150000	-0.004315	-0.000926	0.000000	
0.200000	-0.006556	-0.002683	-0.000000	
0.250000	-0.008713	-0.005776	-0.000000	
0.300000	-0.010389	-0.010062	-0.000000	
0.350000	-0.011384	-0.015222	-0.000008	
0.400000	-0.011714	-0.021005	-0.000008	
0.450000	-0.011472	-0.027092	-0.000009	
0.500000	-0.010655	-0.032890	-0.000009	
0.550000	-0.009114	-0.037727	-0.000010	
0.600000	-0.006720	-0.041295	-0.000018	
0.650000	-0.003454	-0.043797	-0.000018	
0.700000	0.000643	-0.045678	-0.000026	
0.750000	0.005600	-0.047313	-0.000027	
0.800000	0.011532	-0.048971	-0.000019	
0.850000	0.018446	-0.050912	-0.000027	
0.900000	0.026082	-0.053356	-0.000035	
0.950000	0.033968	-0.056296	-0.000035	
1.000000	0.041649	-0.059391	-0.000043	
1.050000	0.048871	-0.062081	-0.000050	
1.100000	0.055563	-0.063792	-0.000057	
1.150000	0.061679	-0.064105	-0.000063	
1.200000	0.067098	-0.062818	-0.000068	
1.250000	0.071717	-0.059927	-0.000081	
1.300000	0.075557	-0.055585	-0.000078	
1.350000	0.078660	-0.050062	-0.000074	
1.400000	0.080922	-0.043721	-0.000079	
1.450000	0.082083	-0.036974	-0.000068	
1.500000	0.081891	-0.030175	-0.000064	
1.550000	0.080283	-0.023527	-0.000061	
1.600000	0.077417	-0.017096	-0.000051	
1.650000	0.073551	-0.010900	-0.000041	
1.700000	0.068886	-0.005027	-0.000040	
1.750000	0.063542	0.000344	-0.000032	
1.800000	0.057703	0.005008	-0.000032	
1.850000	0.051679	0.008784	-0.000025	
1.900000	0.045763	0.011511	-0.000026	
1.950000	0.040163	0.013037	-0.000020	
2.000000	0.035024	0.013252	-0.000014	
2.050000	0.030483	0.012153	-0.000015	
2.100000	0.026744	0.009912	-0.000001	
2.150000	0.024083	0.006836	-0.000008	
2.200000	0.022743	0.003250	-0.000007	
2.250000	0.022808	-0.000592	-0.000004	
2.300000	0.024199	-0.004546	-0.000008	
2.350000	0.026788	-0.008570	-0.000009	
2.400000	0.030444	-0.012695	-0.000001	
2.450000	0.035007	-0.017020	-0.000022	
2.500000	0.040283	-0.021682	-0.000018	
2.550000	0.046070	-0.026795	-0.000012	
2.600000	0.052188	-0.032362	-0.000035	
2.650000	0.058493	-0.038228	-0.000041	
2.700000	0.064855	-0.044102	-0.000054	
2.750000	0.071128	-0.049628	-0.000073	
2.800000	0.077139	-0.054463	-0.000077	
2.850000	0.082715	-0.058333	-0.000088	
2.900000	0.087757	-0.061068	-0.000099	
2.950000	0.092286	-0.062642	-0.000118	
3.000000	0.096399	-0.063178	-0.000114	
3.050000	0.100188	-0.062912	-0.000132	
3.100000	0.103676	-0.062111	-0.000127	
3.150000	0.106784	-0.060992	-0.000130	
3.200000	0.109366	-0.059661	-0.000134	
3.250000	0.111280	-0.058095	-0.000130	
3.300000	0.112426	-0.056165	-0.000144	
3.350000	0.112771	-0.053661	-0.000144	
3.400000	0.112326	-0.050360	-0.000131	
3.450000	0.111100	-0.046103	-0.000129	
3.500000	0.109082	-0.040839	-0.000115	
3.550000	0.106282	-0.034648	-0.000097	
3.600000	0.102746	-0.027746	-0.000091	
3.650000	0.098615	-0.020466	-0.000088	
3.700000	0.094110	-0.013187	-0.000073	
3.750000	0.089404	-0.006283	-0.000068	
3.800000	0.084607	-0.000087	-0.000064	
3.850000	0.079848	0.005150	-0.000053	
3.900000	0.075295	0.009257	-0.000043	
3.950000	0.071103	0.012143	-0.000053	
4.000000	0.067351	0.013806	-0.000039	
4.050000	0.064050	0.014302	-0.000023	
4.100000	0.061245	0.013713	-0.000027	
4.150000	0.059038	0.012120	-0.000027	
4.200000	0.057538	0.009595	-0.000038	
4.250000	0.056810	0.006211	-0.000021	
4.300000	0.056880	0.002080	-0.000029	
4.350000	0.057788	-0.002628	-0.000031	
4.400000	0.059578	-0.007691	-0.000026	
4.450000	0.062287	-0.012893	-0.000021	
4.500000	0.065865	-0.018050	-0.000040	
4.550000	0.070138	-0.023021	-0.000053	
4.600000	0.074872	-0.027699	-0.000053	
4.650000	0.079862	-0.032035	-0.000050	
4.700000	0.084946	-0.036065	-0.000066	
4.750000	0.089980	-0.039906	-0.000089	
4.800000	0.094813	-0.043679	-0.000080	
4.850000	0.099330	-0.047445	-0.000095	
4.900000	0.103508	-0.051166	-0.000118	
4.950000	0.107408	-0.054725	-0.000125	
5.000000	0.111106	-0.057936	-0.000125	
5.050000	0.114608	-0.060549	-0.000134	
5.100000	0.117832	-0.062302	-0.000151	
5.150000	0.120656	-0.062991	-0.000149	
5.200000	0.123001	-0.062521	-0.000159	
5.250000	0.124895	-0.060905	-0.000158	
5.300000	0.126414	-0.058232	-0.000161	
5.350000	0.127636	-0.054671	-0.000160	
5.400000	0.128602	-0.050431	-0.000162	
5.450000	0.129322	-0.045730	-0.000159	
5.500000	0.129780	-0.040758	-0.000152	
5.550000	0.129922	-0.035632	-0.000156	
5.600000	0.129660	-0.030404	-0.000141	
5.650000	0.128924	-0.025088	-0.000125	
5.700000	0.127705	-0.019697	-0.000138	
5.750000	0.126108	-0.014266	-0.000141	
5.800000	0.124334	-0.008878	-0.000124	
5.850000	0.122636	-0.003672	-0.000122	
5.900000	0.121238	0.001166	-0.000116	
5.950000	0.120282	0.005421	-0.000111	
6.000000	0.119796	0.008883	-0.000114	
6.050000	0.119765	0.011388	-0.000117	
6.100000	0.120201	0.012827	-0.000117	
6.150000	0.121127	0.013145	-0.000123	
6.200000	0.122562	0.012326	-0.000118	
6.250000	0.124522	0.010395	-0.000131	
6.300000	0.127048	0.007438	-0.000132	
6.350000	0.130210	0.003583	-0.000141	
6.400000	0.134061	-0.001018	-0.000151	
6.450000	0.138551	-0.006205	-0.000161	
6.500000	0.143485	-0.011807	-0.000182	
6.550000	0.148591	-0.017634	-0.000196	
6.600000	0.153600	-0.023477	-0.000200	
6.650000	0.158362	-0.029139	-0.000213	
6.700000	0.162845	-0.034474	-0.000237	
6.750000	0.167054	-0.039386	-0.000255	
6.800000	0.170999	-0.043810	-0.000260	
6.850000	0.174690	-0.047712	-0.000269	
6.900000	0.178181	-0.051110	-0.000279	
6.950000	0.181537	-0.054087	-0.000306	
7.000000	0.184755	-0.056727	-0.000318	
7.050000	0.187761	-0.059062	-0.000332	
7.100000	0.190451	-0.061065	-0.000335	
7.150000	0.192771	-0.062680	-0.000352	
7.200000	0.194753	-0.063840	-0.000360	
7.250000	0.196485	-0.064450	-0.000357	
7.300000	0.198065	-0.064358	-0.000372	
7.350000	0.199570	-0.063391	-0.000375	
7.400000	0.201105	-0.061421	-0.000377	
7.450000	0.202790	-0.058397	-0.000384	
7.500000	0.204672	-0.054357	-0.000387	
7.550000	0.206699	-0.049421	-0.000379	
7.600000	0.208792	-0.043779	-0.000385	
7.650000	0.210926	-0.037656	-0.000388	
7.700000	0.213110	-0.031296	-0.000403	
7.750000	0.215360	-0.024947	-0.000391	
7.800000	0.217685	-0.018855	-0.000405	
7.850000	0.220081	-0.013232	-0.000413	
7.900000	0.222547	-0.008229	-0.000423	
7.950000	0.225062	-0.003940	-0.000426	
8.000000	0.227567	-0.000411	-0.000441	
8.050000	0.229974	0.002352	-0.000446	
8.100000	0.232221	0.004377	-0.000458	
8.150000	0.234324	0.005694	-0.000463	
8.200000	0.236373	0.006312	-0.000472	
8.250000	0.238459	0.006221	-0.000491	
8.300000	0.240646	0.005403	-0.000496	
8.350000	0.242959	0.003839	-0.000507	
8.400000	0.245399	0.001539	-0.000526	
8.450000	0.247936	-0.001476	-0.000522	
8.500000	0.250523	-0.005152	-0.000527	
8.550000	0.253101	-0.009402	-0.000551	
8.600000	0.255635	-0.014112	-0.000557	
8.650000	0.258108	-0.019151	-0.000585	
8.700000	0.260470	-0.024381	-0.000591	
8.750000	0.262692	-0.029662	-0.000599	
8.800000	0.264755	-0.034878	-0.000618	
8.850000	0.266669	-0.039939	-0.000625	
8.900000	0.268484	-0.044750	-0.000642	
8.950000	0.270236	-0.049199	-0.000652	
9.000000	0.271917	-0.053183	-0.000655	
9.050000	0.273542	-0.056643	-0.000676	
9.100000	0.275180	-0.059574	-0.000686	
9.150000	0.276937	-0.061995	-0.000692	
9.200000	0.278869	-0.063918	-0.000712	
9.250000	0.280963	-0.065353	-0.000716	
9.300000	0.283178	-0.066318	-0.000722	
9.350000	0.285522	-0.066809	-0.000743	
9.400000	0.288087	-0.066787	-0.000761	
9.450000	0.290958	-0.066192	-0.000772	
9.500000	0.294063	-0.064948	-0.000771	
9.550000	0.297178	-0.062968	-0.000790	
9.600000	0.300094	-0.060179	-0.000792	
9.650000	0.302747	-0.056546	-0.000810	
9.700000	0.305203	-0.052084	-0.000819	
9.750000	0.307574	-0.046870	-0.000815	
9.800000	0.309912	-0.041044	-0.000833	
9.850000	0.312193	-0.034821	-0.000835	
9.900000	0.314338	-0.028471	-0.000849	
9.950000	0.316242	-0.022280	-0.000855	
10.000000	0.317798	-0.016487	-0.000858	
10.050000	0.318909	-0.011292	-0.000864	
10.100000	0.319531	-0.006851	-0.000867	
10.150000	0.319695	-0.003286	-0.000865	
10.200000	0.319518	-0.000655	-0.000863	
10.250000	0.319164	0.001071	-0.000866	
10.300000	0.318817	0.001987	-0.000861	
10.350000	0.318658	0.002201	-0.000859	
10.400000	0.318788	0.001811	-0.000864	
10.450000	0.319263	0.000886	-0.000866	
10.500000	0.320135	-0.000526	-0.000867	
10.550000	0.321405	-0.002403	-0.000892	
10.600000	0.322974	-0.004752	-0.000890	
10.650000	0.324665	-0.007613	-0.000902	
10.700000	0.326334	-0.011043	-0.000911	
10.750000	0.327978	-0.015068	-0.000918	
10.800000	0.329717	-0.019653	-0.000932	
10.850000	0.331693	-0.024709	-0.000945	
10.900000	0.333968	-0.030133	-0.000960	
10.950000	0.336519	-0.035812	-0.000979	
11.000000	0.339297	-0.041616	-0.001004	
11.050000	0.342216	-0.047380	-0.001017	
11.100000	0.345187	-0.052920	-0.001032	
11.150000	0.348183	-0.058062	-0.001065	
11.200000	0.351255	-0.062662	-0.001099	
11.250000	0.354504	-0.066606	-0.001104	
11.300000	0.357976	-0.069817	-0.001132	
11.350000	0.361610	-0.072257	-0.001156	
11.400000	0.365277	-0.073902	-0.001182	
11.450000	0.368856	-0.074716	-0.001204	
11.500000	0.372291	-0.074661	-0.001224	
11.550000	0.375538	-0.073719	-0.001232	
11.600000	0.378554	-0.071909	-0.001260	
11.650000	0.381322	-0.069273	-0.001280	
11.700000	0.383813	-0.065864	-0.001278	
11.750000	0.386017	-0.061744	-0.001295	
11.800000	0.387895	-0.056979	-0.001302	
11.850000	0.389355	-0.051643	-0.001298	
11.900000	0.390295	-0.045843	-0.001299	
11.950000	0.390652	-0.039713	-0.001293	
12.000000	0.390466	-0.033395	-0.001295	
12.050000	0.389826	-0.027043	-0.001291	
12.100000	0.388804	-0.020827	-0.001276	
12.150000	0.387460	-0.014935	-0.001270	
12.200000	0.385935	-0.009539	-0.001261	
12.250000	0.384476	-0.004780	-0.001255	
12.300000	0.383361	-0.000783	-0.001254	
12.350000	0.382815	0.002313	-0.001250	
12.400000	0.382945	0.004365	-0.001247	
12.450000	0.383744	0.005286	-0.001244	
12.500000	0.385150	0.005080	-0.001253	
12.550000	0.387115	0.003820	-0.001261	
12.600000	0.389602	0.001613	-0.001284	
12.650000	0.392578	-0.001437	-0.001310	
12.700000	0.396005	-0.005219	-0.001334	
12.750000	0.399829	-0.009622	-0.001366	
12.800000	0.403923	-0.014535	-0.001379	
12.850000	0.408130	-0.019867	-0.001407	
12.900000	0.412379	-0.025565	-0.001441	
12.950000	0.416742	-0.031590	-0.001482	
13.000000	0.421345	-0.037873	-0.001520	
13.050000	0.426209	-0.044276	-0.001563	
13.100000	0.431228	-0.050636	-0.001603	
13.150000	0.436217	-0.056805	-0.001632	
13.200000	0.441044	-0.062663	-0.001679	
13.250000	0.445696	-0.068071	-0.001728	
13.300000	0.450187	-0.072845	-0.001766	
13.350000	0.454485	-0.076808	-0.001811	
13.400000	0.458502	-0.079860	-0.001833	
13.450000	0.462197	-0.081973	-0.001875	
13.500000	0.465625	-0.083134	-0.001902	
13.550000	0.468889	-0.083294	-0.001929	
13.600000	0.472006	-0.082392	-0.001948	
13.650000	0.474904	-0.080437	-0.001966	
13.700000	0.477470	-0.077533	-0.001984	
13.750000	0.479609	-0.073820	-0.001995	
13.800000	0.481246	-0.069403	-0.002006	
13.850000	0.482251	-0.064357	-0.002007	
13.900000	0.482469	-0.058777	-0.002004	
13.950000	0.481885	-0.052788	-0.001984	
14.000000	0.480732	-0.046534	-0.001980	
14.050000	0.479401	-0.040159	-0.001973	
14.100000	0.478152	-0.033787	-0.001946	
14.150000	0.477011	-0.027534	-0.001942	
14.200000	0.475895	-0.021550	-0.001913	
14.250000	0.474841	-0.016025	-0.001925	
14.300000	0.474024	-0.011162	-0.001913	
14.350000	0.473614	-0.007135	-0.001907	
14.400000	0.473571	-0.004053	-0.001900	
14.450000	0.473702	-0.001986	-0.001895	
14.500000	0.473862	-0.001021	-0.001903	
14.550000	0.474131	-0.001236	-0.001903	
14.600000	0.474739	-0.002648	-0.001916	
14.650000	0.475954	-0.005192	-0.001932	
14.700000	0.477962	-0.008748	-0.001940	
14.750000	0.480856	-0.013184	-0.001978	
14.800000	0.484685	-0.018373	-0.002008	
14.850000	0.489434	-0.024183	-0.002048	
14.900000	0.494942	-0.030464	-0.002081	
14.950000	0.501001	-0.037032	-0.002130	
15.000000	0.507416	-0.043711	-0.002190	
15.050000	0.514077	-0.050374	-0.002274	
15.100000	0.520870	-0.056949	-0.002339	
15.150000	0.527671	-0.063405	-0.002398	
15.200000	0.534317	-0.069677	-0.002476	
15.250000	0.540672	-0.075638	-0.002527	
15.300000	0.546660	-0.081130	-0.002598	
15.350000	0.552189	-0.086029	-0.002654	
15.400000	0.557126	-0.090238	-0.002695	
15.450000	0.561293	-0.093644	-0.002742	
15.500000	0.564564	-0.096087	-0.002793	
15.550000	0.566939	-0.097412	-0.002821	
15.600000	0.568514	-0.097535	-0.002841	
15.650000	0.569419	-0.096457	-0.002848	
15.700000	0.569746	-0.094233	-0.002856	
15.750000	0.569509	-0.090920	-0.002834	
15.800000	0.568736	-0.086571	-0.002824	
15.850000	0.567555	-0.081309	-0.002807	
15.900000	0.566181	-0.075347	-0.002787	
15.950000	0.564824	-0.068917	-0.002764	
16.000000	0.563579	-0.062196	-0.002733	
16.050000	0.562363	-0.055304	-0.002712	
16.100000	0.560978	-0.048340	-0.002689	
16.150000	0.559227	-0.041442	-0.002665	
16.200000	0.557088	-0.034773	-0.002640	
16.250000	0.554761	-0.028485	-0.002630	
16.300000	0.552591	-0.022694	-0.002604	
16.350000	0.550928	-0.017500	-0.002596	
16.400000	0.550017	-0.013009	-0.002593	
16.450000	0.549951	-0.009339	-0.002575	
16.500000	0.550658	-0.006578	-0.002579	
16.550000	0.551963	-0.004786	-0.002584	
16.600000	0.553693	-0.003996	-0.002586	
16.650000	0.555740	-0.004219	-0.002621	
16.700000	0.558094	-0.005465	-0.002628	
16.750000	0.560815	-0.007750	-0.002683	
16.800000	0.563960	-0.011067	-0.002704	
16.850000	0.567549	-0.015360	-0.002741	
16.900000	0.571528	-0.020525	-0.002785	
16.950000	0.575713	-0.026420	-0.002814	
17.000000	0.579814	-0.032880	-0.002847	
17.050000	0.583548	-0.039716	-0.002896	
17.100000	0.586773	-0.046712	-0.002927	
17.150000	0.589562	-0.053657	-0.002979	
17.200000	0.592075	-0.060402	-0.003020	
17.250000	0.594449	-0.066832	-0.003057	
17.300000	0.596698	-0.072840	-0.003066	
17.350000	0.598758	-0.078325	-0.003103	
17.400000	0.600628	-0.083184	-0.003129	
17.450000	0.602419	-0.087364	-0.003164	
17.500000	0.604284	-0.090854	-0.003194	
17.550000	0.606277	-0.093641	-0.003207	
17.600000	0.608286	-0.095657	-0.003225	
17.650000	0.610124	-0.096777	-0.003256	
17.700000	0.611575	-0.096890	-0.003267	
17.750000	0.612467	-0.095950	-0.003280	
17.800000	0.612670	-0.093965	-0.003275	
17.850000	0.612105	-0.090962	-0.003261	
17.900000	0.610855	-0.086974	-0.003253	
17.950000	0.609185	-0.082087	-0.003231	
18.000000	0.607434	-0.076445	-0.003208	
18.050000	0.605863	-0.070218	-0.003187	
18.100000	0.604521	-0.063574	-0.003144	
18.150000	0.603353	-0.056667	-0.003131	
18.200000	0.602345	-0.049665	-0.003110	
18.250000	0.601602	-0.042741	-0.003105	
18.300000	0.601145	-0.036052	-0.003080	
18.350000	0.600826	-0.029725	-0.003083	
18.400000	0.600388	-0.023882	-0.003048	
18.450000	0.599648	-0.018655	-0.003051	
18.500000	0.598549	-0.014180	-0.003043	
18.550000	0.597090	-0.010566	-0.003018	
18.600000	0.595241	-0.007882	-0.002993	
18.650000	0.592987	-0.006176	-0.002971	
18.700000	0.590417	-0.005480	-0.002948	
18.750000	0.587686	-0.005798	-0.002934	
18.800000	0.584966	-0.007135	-0.002907	
18.850000	0.582442	-0.009474	-0.002889	
18.900000	0.580334	-0.012791	-0.002874	
18.950000	0.578844	-0.017048	-0.002850	
19.000000	0.578091	-0.022189	-0.002840	
19.050000	0.578118	-0.028127	-0.002847	
19.100000	0.578921	-0.034721	-0.002855	
19.150000	0.580485	-0.041784	-0.002877	
19.200000	0.582835	-0.049115	-0.002917	
19.250000	0.585935	-0.056545	-0.002958	
19.300000	0.589596	-0.063917	-0.002997	
19.350000	0.593485	-0.071041	-0.003032	
19.400000	0.597290	-0.077692	-0.003085	
19.450000	0.600899	-0.083658	-0.003134	
19.500000	0.604449	-0.088809	-0.003193	
19.550000	0.608159	-0.093106	-0.003247	
19.600000	0.612139	-0.096547	-0.003283	
19.650000	0.616324	-0.099100	-0.003340	
19.700000	0.620553	-0.100730	-0.003386	
19.750000	0.624750	-0.101440	-0.003424	
19.800000	0.628874	-0.101251	-0.003459	
19.850000	0.632741	-0.100159	-0.003492	
19.900000	0.636015	-0.098128	-0.003509	
19.950000	0.638367	-0.095105	-0.003555	
20.000000	0.639689	-0.091094	-0.003544	
20.050000	0.640122	-0.086165	-0.003550	
20.100000	0.639820	-0.080427	-0.003536	
20.150000	0.638810	-0.074017	-0.003521	
20.200000	0.637012	-0.067094	-0.003483	
20.250000	0.634425	-0.059837	-0.003452	
20.300000	0.631185	-0.052433	-0.003424	
20.350000	0.627449	-0.045087	-0.003367	
20.400000	0.623264	-0.038018	-0.003313	
20.450000	0.618623	-0.031427	-0.003259	
20.500000	0.613597	-0.025492	-0.003210	
20.550000	0.608349	-0.020363	-0.003159	
20.600000	0.603099	-0.016161	-0.003096	
20.650000	0.598054	-0.012980	-0.003045	
20.700000	0.593387	-0.010884	-0.002991	
20.750000	0.589209	-0.009872	-0.002948	
20.800000	0.585543	-0.009896	-0.002906	
20.850000	0.582298	-0.010913	-0.002886	
20.900000	0.579275	-0.012901	-0.002853	
20.950000	0.576302	-0.015841	-0.002824	
21.000000	0.573410	-0.019707	-0.002802	
21.050000	0.570910	-0.024446	-0.002783	
21.100000	0.569228	-0.029973	-0.002779	
21.150000	0.568657	-0.036193	-0.002781	
21.200000	0.569265	-0.042991	-0.002791	
21.250000	0.570941	-0.050220	-0.002800	
21.300000	0.573562	-0.057728	-0.002844	
21.350000	0.577053	-0.065368	-0.002879	
21.400000	0.581271	-0.072969	-0.002935	
21.450000	0.585918	-0.080315	-0.002978	
21.500000	0.590635	-0.087155	-0.003021	
21.550000	0.595186	-0.093243	-0.003090	
21.600000	0.599534	-0.098423	-0.003146	
21.650000	0.603778	-0.102612	-0.003192	
21.700000	0.607998	-0.105745	-0.003248	
21.750000	0.612072	-0.107750	-0.003285	
21.800000	0.615849	-0.108572	-0.003332	
21.850000	0.619288	-0.108221	-0.003371	
21.900000	0.622373	-0.106791	-0.003403	
21.950000	0.624997	-0.104391	-0.003442	
22.000000	0.626999	-0.101082	-0.003447	
22.050000	0.628268	-0.096921	-0.003448	
22.100000	0.628791	-0.091988	-0.003445	
22.150000	0.628659	-0.086404	-0.003433	
22.200000	0.628071	-0.080307	-0.003429	
22.250000	0.627236	-0.073800	-0.003404	
22.300000	0.626214	-0.066967	-0.003372	
22.350000	0.624962	-0.059919	-0.003361	
22.400000	0.623324	-0.052804	-0.003343	
22.450000	0.621030	-0.045789	-0.003308	
22.500000	0.617849	-0.039050	-0.003268	
22.550000	0.613754	-0.032774	-0.003217	
22.600000	0.608897	-0.027165	-0.003171	
22.650000	0.603566	-0.022434	-0.003126	
22.700000	0.598099	-0.018757	-0.003075	
22.750000	0.592737	-0.016252	-0.003015	
22.800000	0.587576	-0.014965	-0.002963	
22.850000	0.582661	-0.014911	-0.002913	
22.900000	0.578089	-0.016069	-0.002868	
22.950000	0.573952	-0.018384	-0.002809	
23.000000	0.570262	-0.021768	-0.002774	
23.050000	0.566948	-0.026105	-0.002734	
23.100000	0.563915	-0.031258	-0.002705	
23.150000	0.561214	-0.037088	-0.002689	
23.200000	0.559155	-0.043472	-0.002685	
23.250000	0.558182	-0.050289	-0.002706	
23.300000	0.558532	-0.057417	-0.002701	
23.350000	0.560156	-0.064713	-0.002716	
23.400000	0.562794	-0.072027	-0.002750	
23.450000	0.566150	-0.079199	-0.002782	
23.500000	0.570055	-0.086090	-0.002836	
23.550000	0.574357	-0.092555	-0.002894	
23.600000	0.578837	-0.098412	-0.002942	
23.650000	0.583236	-0.103468	-0.002974	
23.700000	0.587431	-0.107574	-0.003039	
23.750000	0.591527	-0.110647	-0.003086	
23.800000	0.595706	-0.112642	-0.003146	
23.850000	0.600024	-0.113505	-0.003189	
23.900000	0.604300	-0.113175	-0.003239	
23.950000	0.608137	-0.111627	-0.003261	
24.000000	0.611077	-0.108918	-0.003282	
24.050000	0.612749	-0.105165	-0.003308	
24.100000	0.613004	-0.100513	-0.003307	
24.150000	0.611879	-0.095109	-0.003289	
24.200000	0.609447	-0.089111	-0.003249	
24.250000	0.605855	-0.082692	-0.003212	
24.300000	0.601280	-0.076018	-0.003153	
24.350000	0.595849	-0.069245	-0.003077	
24.400000	0.589671	-0.062543	-0.003006	
24.450000	0.582935	-0.056064	-0.002938	
24.500000	0.575858	-0.049937	-0.002859	
24.550000	0.568599	-0.044274	-0.002779	
24.600000	0.561206	-0.039146	-0.002691	
24.650000	0.553695	-0.034624	-0.002616	
24.700000	0.546244	-0.030790	-0.002554	
24.750000	0.539284	-0.027741	-0.002490	
24.800000	0.533265	-0.025562	-0.002447	
24.850000	0.528392	-0.024318	-0.002393	
24.900000	0.524627	-0.024066	-0.002357	
24.950000	0.521786	-0.024836	-0.002330	
